# detuning (MHz)             polarized                 unpolarized
  -24.853369987688335        1.4458016403875527E-003   3.8206990858931697E-004
  -24.845084150052834        1.4513301251736614E-003   3.8350993684986524E-004
  -24.836798312417333        1.4568915639320478E-003   3.8495852214198841E-004
  -24.828512474781832        1.4624862214426945E-003   3.8641573320858286E-004
  -24.820226637146330        1.4681143651553478E-003   3.8788163948605755E-004
  -24.811940799510825        1.4737762652218787E-003   3.8935631111274228E-004
  -24.803654961875324        1.4794721945290612E-003   3.9083981893742116E-004
  -24.795369124239823        1.4852024287319461E-003   3.9233223452799117E-004
  -24.787083286604322        1.4909672462875678E-003   3.9383363018024458E-004
  -24.778797448968817        1.4967669284892367E-003   3.9534407892676470E-004
  -24.770511611333315        1.5026017595012747E-003   3.9686365454596459E-004
  -24.762225773697814        1.5084720263942254E-003   3.9839243157124702E-004
  -24.753939936062313        1.5143780191806408E-003   3.9993048530029772E-004
  -24.745654098426812        1.5203200308513290E-003   4.0147789180450916E-004
  -24.737368260791307        1.5262983574121170E-003   4.0303472793854931E-004
  -24.729082423155806        1.5323132979211693E-003   4.0460107135004933E-004
  -24.720796585520304        1.5383651545268768E-003   4.0617700048946282E-004
  -24.712510747884803        1.5444542325061862E-003   4.0776259462003088E-004
  -24.704224910249302        1.5505808403036272E-003   4.0935793382792450E-004
  -24.695939072613797        1.5567452895707931E-003   4.1096309903251507E-004
  -24.687653234978296        1.5629478952064720E-003   4.1257817199679710E-004
  -24.679367397342794        1.5691889753973035E-003   4.1420323533797841E-004
  -24.671081559707293        1.5754688516591059E-003   4.1583837253819948E-004
  -24.662795722071792        1.5817878488787050E-003   4.1748366795543674E-004
  -24.654509884436287        1.5881462953565096E-003   4.1913920683455096E-004
  -24.646224046800786        1.5945445228495636E-003   4.2080507531849109E-004
  -24.637938209165284        1.6009828666154161E-003   4.2248136045969827E-004
  -24.629652371529783        1.6074616654564284E-003   4.2416815023163084E-004
  -24.621366533894282        1.6139812617649298E-003   4.2586553354049715E-004
  -24.613080696258777        1.6205420015689247E-003   4.2757360023714915E-004
  -24.604794858623276        1.6271442345785246E-003   4.2929244112915313E-004
  -24.596509020987774        1.6337883142330889E-003   4.3102214799303876E-004
  -24.588223183352273        1.6404745977489981E-003   4.3276281358674225E-004
  -24.579937345716768        1.6472034461682762E-003   4.3451453166222840E-004
  -24.571651508081267        1.6539752244077604E-003   4.3627739697828726E-004
  -24.563365670445766        1.6607903013091860E-003   4.3805150531355783E-004
  -24.555079832810264        1.6676490496899507E-003   4.3983695347972539E-004
  -24.546793995174763        1.6745518463945873E-003   4.4163383933491372E-004
  -24.538508157539258        1.6814990723471473E-003   4.4344226179729771E-004
  -24.530222319903757        1.6884911126042721E-003   4.4526232085891082E-004
  -24.521936482268256        1.6955283564091168E-003   4.4709411759966957E-004
  -24.513650644632754        1.7026111972460879E-003   4.4893775420160693E-004
  -24.505364806997253        1.7097400328964230E-003   4.5079333396332163E-004
  -24.497078969361748        1.7169152654946016E-003   4.5266096131465691E-004
  -24.488793131726247        1.7241373015856728E-003   4.5454074183160463E-004
  -24.480507294090746        1.7314065521833793E-003   4.5643278225142411E-004
  -24.472221456455244        1.7387234328292789E-003   4.5833719048801475E-004
  -24.463935618819740        1.7460883636526872E-003   4.6025407564751056E-004
  -24.455649781184238        1.7535017694315989E-003   4.6218354804412334E-004
  -24.447363943548737        1.7609640796545660E-003   4.6412571921622978E-004
  -24.439078105913236        1.7684757285834855E-003   4.6608070194271566E-004
  -24.430792268277735        1.7760371553174309E-003   4.6804861025956330E-004
  -24.422506430642230        1.7836488038574232E-003   4.7002955947670694E-004
  -24.414220593006728        1.7913111231722336E-003   4.7202366619514567E-004
  -24.405934755371227        1.7990245672652473E-003   4.7403104832433588E-004
  -24.397648917735726        1.8067895952423516E-003   4.7605182509984838E-004
  -24.389363080100225        1.8146066713808874E-003   4.7808611710130111E-004
  -24.381077242464720        1.8224762651997000E-003   4.8013404627058541E-004
  -24.372791404829218        1.8303988515303352E-003   4.8219573593038091E-004
  -24.364505567193717        1.8383749105892896E-003   4.8427131080294885E-004
  -24.356219729558216        1.8464049280514426E-003   4.8636089702924225E-004
  -24.347933891922715        1.8544893951247397E-003   4.8846462218831571E-004
  -24.339648054287210        1.8626288086259107E-003   4.9058261531704150E-004
  -24.331362216651709        1.8708236710575337E-003   4.9271500693014397E-004
  -24.323076379016207        1.8790744906862743E-003   4.9486192904055464E-004
  -24.314790541380706        1.8873817816224042E-003   4.9702351518010157E-004
  -24.306504703745205        1.8957460639005979E-003   4.9919990042052544E-004
  -24.298218866109700        1.9041678635620173E-003   5.0139122139483455E-004
  -24.289933028474199        1.9126477127377553E-003   5.0359761631901139E-004
  -24.281647190838697        1.9211861497336136E-003   5.0581922501407044E-004
  -24.273361353203196        1.9297837191162796E-003   5.0805618892847671E-004
  -24.265075515567691        1.9384409718008646E-003   5.1030865116091903E-004
  -24.256789677932190        1.9471584651399279E-003   5.1257675648347194E-004
  -24.248503840296689        1.9559367630139317E-003   5.1486065136512949E-004
  -24.240218002661187        1.9647764359231957E-003   5.1716048399572969E-004
  -24.231932165025686        1.9736780610813513E-003   5.1947640431026447E-004
  -24.223646327390181        1.9826422225103146E-003   5.2180856401360255E-004
  -24.215360489754680        1.9916695111368886E-003   5.2415711660560476E-004
  -24.207074652119179        2.0007605248909283E-003   5.2652221740668453E-004
  -24.198788814483677        2.0099158688051608E-003   5.2890402358376414E-004
  -24.190502976848176        2.0191361551165944E-003   5.3130269417667772E-004
  -24.182217139212671        2.0284220033697916E-003   5.3371839012502156E-004
  -24.173931301577170        2.0377740405216117E-003   5.3615127429543035E-004
  -24.165645463941669        2.0471929010479951E-003   5.3860151150934897E-004
  -24.157359626306167        2.0566792270523141E-003   5.4106926857123278E-004
  -24.149073788670663        2.0662336683756866E-003   5.4355471429724735E-004
  -24.140787951035161        2.0758568827090830E-003   5.4605801954445002E-004
  -24.132502113399660        2.0855495357073872E-003   5.4857935724046149E-004
  -24.124216275764159        2.0953123011053379E-003   5.5111890241364182E-004
  -24.115930438128657        2.1051458608355058E-003   5.5367683222379142E-004
  -24.107644600493153        2.1150509051481932E-003   5.5625332599335171E-004
  -24.099358762857651        2.1250281327334876E-003   5.5884856523917017E-004
  -24.091072925222150        2.1350782508453496E-003   5.6146273370479320E-004
  -24.082787087586649        2.1452019754278477E-003   5.6409601739331014E-004
  -24.074501249951147        2.1554000312435455E-003   5.6674860460078215E-004
  -24.066215412315643        2.1656731520041323E-003   5.6942068595023103E-004
  -24.057929574680141        2.1760220805033354E-003   5.7211245442621730E-004
  -24.049643737044640        2.1864475687520721E-003   5.7482410541004369E-004
  -24.041357899409139        2.1969503781160285E-003   5.7755583671553886E-004
  -24.033072061773638        2.2075312794555902E-003   5.8030784862548538E-004
  -24.024786224138133        2.2181910532682210E-003   5.8308034392868028E-004
  -24.016500386502631        2.2289304898333779E-003   5.8587352795764569E-004
  -24.008214548867130        2.2397503893598924E-003   5.8868760862700465E-004
  -23.999928711231629        2.2506515621360996E-003   5.9152279647253390E-004
  -23.991642873596128        2.2616348286823894E-003   5.9437930469090046E-004
  -23.983357035960623        2.2727010199067228E-003   5.9725734918011475E-004
  -23.975071198325121        2.2838509772626536E-003   6.0015714858068295E-004
  -23.966785360689620        2.2950855529103834E-003   6.0307892431752178E-004
  -23.958499523054119        2.3064056098805194E-003   6.0602290064259079E-004
  -23.950213685418614        2.3178120222408886E-003   6.0898930467831046E-004
  -23.941927847783113        2.3293056752662473E-003   6.1197836646174431E-004
  -23.933642010147612        2.3408874656110959E-003   6.1499031898958880E-004
  -23.925356172512110        2.3525583014856024E-003   6.1802539826396425E-004
  -23.917070334876609        2.3643191028346919E-003   6.2108384333904457E-004
  -23.908784497241104        2.3761708015203617E-003   6.2416589636851575E-004
  -23.900498659605603        2.3881143415073716E-003   6.2727180265392346E-004
  -23.892212821970102        2.4001506790522964E-003   6.3040181069387775E-004
  -23.883926984334600        2.4122807828958945E-003   6.3355617223416179E-004
  -23.875641146699099        2.4245056344592382E-003   6.3673514231876900E-004
  -23.867355309063594        2.4368262280432965E-003   6.3993897934187945E-004
  -23.859069471428093        2.4492435710321320E-003   6.4316794510076310E-004
  -23.850783633792592        2.4617586841000193E-003   6.4642230484971016E-004
  -23.842497796157090        2.4743726014222508E-003   6.4970232735490788E-004
  -23.834211958521585        2.4870863708899554E-003   6.5300828495038453E-004
  -23.825926120886084        2.4999010543287734E-003   6.5634045359494366E-004
  -23.817640283250583        2.5128177277217840E-003   6.5969911293021772E-004
  -23.809354445615082        2.5258374814364961E-003   6.6308454633976020E-004
  -23.801068607979580        2.5389614204560187E-003   6.6649704100926331E-004
  -23.792782770344076        2.5521906646148360E-003   6.6993688798792873E-004
  -23.784496932708574        2.5655263488386744E-003   6.7340438225094775E-004
  -23.776211095073073        2.5789696233892174E-003   6.7689982276322638E-004
  -23.767925257437572        2.5925216541132570E-003   6.8042351254425702E-004
  -23.759639419802070        2.6061836226966765E-003   6.8397575873427362E-004
  -23.751353582166566        2.6199567269232504E-003   6.8755687266163596E-004
  -23.743067744531064        2.6338421809382908E-003   6.9116716991150676E-004
  -23.734781906895563        2.6478412155175424E-003   6.9480697039586833E-004
  -23.726496069260062        2.6619550783410799E-003   6.9847659842485965E-004
  -23.718210231624560        2.6761850342724770E-003   7.0217638277949256E-004
  -23.709924393989056        2.6905323656435318E-003   7.0590665678579335E-004
  -23.701638556353554        2.7049983725442729E-003   7.0966775839034616E-004
  -23.693352718718053        2.7195843731187899E-003   7.1346003023734753E-004
  -23.685066881082552        2.7342917038667191E-003   7.1728381974711956E-004
  -23.676781043447050        2.7491217199506661E-003   7.2113947919619746E-004
  -23.668495205811546        2.7640757955095636E-003   7.2502736579895151E-004
  -23.660209368176044        2.7791553239783235E-003   7.2894784179083699E-004
  -23.651923530540543        2.7943617184136306E-003   7.3290127451327083E-004
  -23.643637692905042        2.8096964118263217E-003   7.3688803650020542E-004
  -23.635351855269537        2.8251608575201839E-003   7.4090850556639135E-004
  -23.627066017634036        2.8407565294375492E-003   7.4496306489740404E-004
  -23.618780179998534        2.8564849225119044E-003   7.4905210314148846E-004
  -23.610494342363033        2.8723475530272164E-003   7.5317601450319437E-004
  -23.602208504727532        2.8883459589848551E-003   7.5733519883892865E-004
  -23.593922667092027        2.9044817004775436E-003   7.6153006175441794E-004
  -23.585636829456526        2.9207563600710143E-003   7.6576101470410664E-004
  -23.577350991821024        2.9371715431933676E-003   7.7002847509261897E-004
  -23.569065154185523        2.9537288785322158E-003   7.7433286637822141E-004
  -23.560779316550022        2.9704300184400234E-003   7.7867461817844076E-004
  -23.552493478914517        2.9872766393476339E-003   7.8305416637778876E-004
  -23.544207641279016        3.0042704421861708E-003   7.8747195323771726E-004
  -23.535921803643514        3.0214131528177907E-003   7.9192842750883032E-004
  -23.527635966008013        3.0387065224750823E-003   7.9642404454540155E-004
  -23.519350128372508        3.0561523282096052E-003   8.0095926642222810E-004
  -23.511064290737007        3.0737523733497091E-003   8.0553456205394885E-004
  -23.502778453101506        3.0915084879678538E-003   8.1015040731679047E-004
  -23.494492615466005        3.1094225293575497E-003   8.1480728517290446E-004
  -23.486206777830503        3.1274963825203895E-003   8.1950568579722185E-004
  -23.477920940194998        3.1457319606631672E-003   8.2424610670705752E-004
  -23.469635102559497        3.1641312057053986E-003   8.2902905289433464E-004
  -23.461349264923996        3.1826960887976481E-003   8.3385503696069882E-004
  -23.453063427288495        3.2014286108506575E-003   8.3872457925539691E-004
  -23.444777589652993        3.2203308030757526E-003   8.4363820801613097E-004
  -23.436491752017488        3.2394047275367405E-003   8.4859645951288257E-004
  -23.428205914381987        3.2586524777134117E-003   8.5359987819481973E-004
  -23.419920076746486        3.2780761790773068E-003   8.5864901684032347E-004
  -23.411634239110985        3.2976779896795884E-003   8.6374443671024832E-004
  -23.403348401475483        3.3174601007517654E-003   8.6888670770448196E-004
  -23.395062563839979        3.3374247373191565E-003   8.7407640852186607E-004
  -23.386776726204477        3.3575741588277109E-003   8.7931412682357927E-004
  -23.378490888568976        3.3779106597845356E-003   8.8460045940011315E-004
  -23.370205050933475        3.3984365704120812E-003   8.8993601234180599E-004
  -23.361919213297973        3.4191542573169375E-003   8.9532140121316873E-004
  -23.353633375662469        3.4400661241729014E-003   9.0075725123099745E-004
  -23.345347538026967        3.4611746124194528E-003   9.0624419744640868E-004
  -23.337061700391466        3.4824822019752068E-003   9.1178288493089449E-004
  -23.328775862755965        3.5039914119674178E-003   9.1737396896648189E-004
  -23.320490025120460        3.5257048014775568E-003   9.2301811524012263E-004
  -23.312204187484959        3.5476249703033716E-003   9.2871600004239437E-004
  -23.303918349849457        3.5697545597381686E-003   9.3446831047066842E-004
  -23.295632512213956        3.5920962533672806E-003   9.4027574463677712E-004
  -23.287346674578455        3.6146527778825478E-003   9.4613901187941447E-004
  -23.279060836942950        3.6374269039151971E-003   9.5205883298127465E-004
  -23.270774999307449        3.6604214468873028E-003   9.5803594039109517E-004
  -23.262489161671947        3.6836392678828225E-003   9.6407107845079181E-004
  -23.254203324036446        3.7070832745382336E-003   9.7016500362771580E-004
  -23.245917486400945        3.7307564219535836E-003   9.7631848475221721E-004
  -23.237631648765440        3.7546617136243843E-003   9.8253230326069362E-004
  -23.229345811129939        3.7788022023947389E-003   9.8880725344414953E-004
  -23.221059973494437        3.8031809914327373E-003   9.9514414270255973E-004
  -23.212774135858936        3.8278012352280549E-003   1.0015437918050821E-003
  -23.204488298223431        3.8526661406129070E-003   1.0080070351563203E-003
  -23.196202460587930        3.8777789678066301E-003   1.0145347210687606E-003
  -23.187916622952429        3.9031430314846547E-003   1.0211277120416144E-003
  -23.179630785316927        3.9287617018726184E-003   1.0277868850461795E-003
  -23.171344947681426        3.9546384058659545E-003   1.0345131318178935E-003
  -23.163059110045921        3.9807766281761345E-003   1.0413073591553025E-003
  -23.154773272410420        4.0071799125037319E-003   1.0481704892261010E-003
  -23.146487434774919        4.0338518627396399E-003   1.0551034598804618E-003
  -23.138201597139417        4.0607961441945558E-003   1.0621072249717655E-003
  -23.129915759503916        4.0880164848580832E-003   1.0691827546851094E-003
  -23.121629921868411        4.1155166766879232E-003   1.0763310358735902E-003
  -23.113344084232910        4.1433005769300150E-003   1.0835530724027671E-003
  -23.105058246597409        4.1713721094706118E-003   1.0908498855033981E-003
  -23.096772408961908        4.1997352662211211E-003   1.0982225141327520E-003
  -23.088486571326406        4.2283941085364783E-003   1.1056720153446934E-003
  -23.080200733690901        4.2573527686681880E-003   1.1131994646688293E-003
  -23.071914896055400        4.2866154512528820E-003   1.1208059564988997E-003
  -23.063629058419899        4.3161864348374998E-003   1.1284926044907721E-003
  -23.055343220784398        4.3460700734418954E-003   1.1362605419701916E-003
  -23.047057383148896        4.3762707981602296E-003   1.1441109223506920E-003
  -23.038771545513391        4.4067931188019717E-003   1.1520449195618094E-003
  -23.030485707877890        4.4376416255738210E-003   1.1600637284880479E-003
  -23.022199870242389        4.4688209908036701E-003   1.1681685654187722E-003
  -23.013914032606888        4.5003359707076994E-003   1.1763606685094186E-003
  -23.005628194971383        4.5321914072020478E-003   1.1846412982543229E-003
  -22.997342357335882        4.5643922297601194E-003   1.1930117379714907E-003
  -22.989056519700380        4.5969434573170853E-003   1.2014732942996936E-003
  -22.980770682064879        4.6298502002227338E-003   1.2100272977082144E-003
  -22.972484844429378        4.6631176622441454E-003   1.2186751030195805E-003
  -22.964199006793873        4.6967511426197865E-003   1.2274180899457983E-003
  -22.955913169158372        4.7307560381662653E-003   1.2362576636382721E-003
  -22.947627331522870        4.7651378454395604E-003   1.2451952552520475E-003
  -22.939341493887369        4.7999021629522593E-003   1.2542323225246186E-003
  -22.931055656251868        4.8350546934482867E-003   1.2633703503698011E-003
  -22.922769818616363        4.8706012462370199E-003   1.2726108514871570E-003
  -22.914483980980862        4.9065477395886445E-003   1.2819553669873509E-003
  -22.906198143345360        4.9429002031923788E-003   1.2914054670340284E-003
  -22.897912305709859        4.9796647806795314E-003   1.3009627515025851E-003
  -22.889626468074354        5.0168477322133972E-003   1.3106288506564351E-003
  -22.881340630438853        5.0544554371478667E-003   1.3204054258412626E-003
  -22.873054792803352        5.0924943967573712E-003   1.3302941701978648E-003
  -22.864768955167850        5.1309712370392994E-003   1.3402968093940435E-003
  -22.856483117532349        5.1698927115924331E-003   1.3504151023762503E-003
  -22.848197279896844        5.2092657045724666E-003   1.3606508421415170E-003
  -22.839911442261343        5.2490972337278421E-003   1.3710058565303065E-003
  -22.831625604625842        5.2893944535182995E-003   1.3814820090410089E-003
  -22.823339766990340        5.3301646583182602E-003   1.3920811996666585E-003
  -22.815053929354839        5.3714152857081100E-003   1.4028053657545985E-003
  -22.806768091719334        5.4131539198559722E-003   1.4136564828898524E-003
  -22.798482254083833        5.4553882949929019E-003   1.4246365658029001E-003
  -22.790196416448332        5.4981262989845419E-003   1.4357476693027027E-003
  -22.781910578812830        5.5413759770018504E-003   1.4469918892356531E-003
  -22.773624741177329        5.5851455352948489E-003   1.4583713634714343E-003
