 #Wavefunction nu=           4
 # R (nm)   R psi(R)    E(MHz)
   9.6824421025974196E-005   4.3094664869675042E-018  -4.4783279344057858     
   3.2458500270136242E-004   1.5213632428809686E-017  -4.4783279344057858     
   6.8255612481164958E-004   3.0549095767597130E-017  -4.4783279344057858     
   1.1707098398518237E-003   5.3916815579948403E-017  -4.4783279344057858     
   1.7890408912213842E-003   8.0838112380913255E-017  -4.4783279344057858     
   2.5375474161630491E-003   1.1478293130633369E-016  -4.4783279344057858     
   3.4162283292333276E-003   1.6024495296255100E-016  -4.4783279344057858     
   4.4250827356027778E-003   2.1158057665598862E-016  -4.4783279344057858     
   5.5641097560170704E-003   2.6536063160093988E-016  -4.4783279344057858     
   6.8333084637588410E-003   3.2867008402093103E-016  -4.4783279344057858     
   8.2326778585848203E-003   4.0276630630097694E-016  -4.4783279344057858     
   9.7622168548459325E-003   4.8203843277948417E-016  -4.4783279344057858     
   1.1421924275535542E-002   5.6124991813764999E-016  -4.4783279344057858     
   1.3211798849181503E-002   6.5690465658520547E-016  -4.4783279344057858     
   1.5131839208037567E-002   7.7833002936522006E-016  -4.4783279344057858     
   1.7182043887089361E-002   8.9014477993706214E-016  -4.4783279344057858     
   1.9362411323375954E-002   1.0431214658072280E-015  -4.4783279344057858     
   2.1672939855579474E-002   1.1834282248739930E-015  -4.4783279344057858     
   2.4113627723768766E-002   1.3032385901521524E-015  -4.4783279344057858     
   2.6684473069168706E-002   1.5002658457706656E-015  -4.4783279344057858     
   2.9385473934050280E-002   1.6141891708849324E-015  -4.4783279344057858     
   3.2216628261598802E-002   1.8065388081744849E-015  -4.4783279344057858     
   3.5177933895817394E-002   1.9929128050965729E-015  -4.4783279344057858     
   3.8269388581484570E-002   2.1713367624670411E-015  -4.4783279344057858     
   4.1490989964052108E-002   2.3366521642112257E-015  -4.4783279344057858     
   4.4842735589611223E-002   2.5244214024174609E-015  -4.4783279344057858     
   4.8324622904818065E-002   2.7248692288612593E-015  -4.4783279344057858     
   5.1936649256849543E-002   2.9068266413748964E-015  -4.4783279344057858     
   5.5678811893361116E-002   3.0849173769847966E-015  -4.4783279344057858     
   5.9551107962399055E-002   3.3871366804297587E-015  -4.4783279344057858     
   6.3553534512395288E-002   3.5706853596008787E-015  -4.4783279344057858     
   6.7686088492078841E-002   3.7377682888780389E-015  -4.4783279344057858     
   7.1948766750436446E-002   3.9093880094810602E-015  -4.4783279344057858     
   7.6341566036661174E-002   4.0818906401841403E-015  -4.4783279344057858     
   8.0864483000088402E-002   4.3386994771649461E-015  -4.4783279344057858     
   8.5517514190152980E-002   4.5394757357515968E-015  -4.4783279344057858     
   9.0300656056310186E-002   4.7013784169074911E-015  -4.4783279344057858     
   9.5213904947996683E-002   4.8482555309287903E-015  -4.4783279344057858     
  0.10025725711456478        5.0349923390077114E-015  -4.4783279344057858     
  0.10543070870521409        5.2042759072169202E-015  -4.4783279344057858     
  0.11073425576892969        5.3112933364563167E-015  -4.4783279344057858     
  0.11616789425443175        5.4375020302757094E-015  -4.4783279344057858     
  0.12173162001007971        5.6156115734376557E-015  -4.4783279344057858     
  0.12742542878383983        5.7151633690826247E-015  -4.4783279344057858     
  0.13324931622318870        5.9362428492758453E-015  -4.4783279344057858     
  0.13920327787504663        6.0571139248738892E-015  -4.4783279344057858     
  0.14528730918572275        6.1331033985376873E-015  -4.4783279344057858     
  0.15150140550081456        6.3273830621462737E-015  -4.4783279344057858     
  0.15784556206515210        6.3720729579232658E-015  -4.4783279344057858     
  0.16431977402271561        6.5399206744718796E-015  -4.4783279344057858     
  0.17092403641655010        6.6344702858406471E-015  -4.4783279344057858     
  0.17765834418869189        6.7409585851028809E-015  -4.4783279344057858     
  0.18452269218007758        6.9795396731064655E-015  -4.4783279344057858     
  0.19151707513047880        7.1756257495849718E-015  -4.4783279344057858     
  0.19864148767839657        7.3028976564433197E-015  -4.4783279344057858     
  0.20589592436097590        7.4336532023067206E-015  -4.4783279344057858     
  0.21328037961393725        7.4899406122505124E-015  -4.4783279344057858     
  0.22079484777146180        7.6105591809933673E-015  -4.4783279344057858     
  0.22843932306611725        7.7206731012445507E-015  -4.4783279344057858     
  0.23621379962875186        7.7858723017164170E-015  -4.4783279344057858     
  0.24411827148840476        7.8457738207088008E-015  -4.4783279344057858     
  0.25215273257221382        7.8841163839139609E-015  -4.4783279344057858     
  0.26031717670531063        7.8761653913065457E-015  -4.4783279344057858     
  0.26861159761072256        7.8888769876326792E-015  -4.4783279344057858     
  0.27703598890927178        7.9322410742171679E-015  -4.4783279344057858     
  0.28559034411947171        8.0051490226802367E-015  -4.4783279344057858     
  0.29427465665742047        8.0839919944483814E-015  -4.4783279344057858     
  0.30308891983670122        8.1372462993349217E-015  -4.4783279344057858     
  0.31203312686826484        8.1047350626366360E-015  -4.4783279344057858     
  0.32110727086032509        8.0861907879264724E-015  -4.4783279344057858     
  0.33031134481824975        7.9584696881651736E-015  -4.4783279344057858     
  0.33964534164444066        8.0583271897727535E-015  -4.4783279344057858     
  0.34910925413823357        8.0849917360350346E-015  -4.4783279344057858     
  0.35870307499575804        8.1639703340150827E-015  -4.4783279344057858     
  0.36842679680984175        8.1216739118757244E-015  -4.4783279344057858     
  0.37828041206988283        8.1151958734100956E-015  -4.4783279344057858     
  0.38826391316173059        8.0054378569700387E-015  -4.4783279344057858     
  0.39837729236756114        7.9503572914666160E-015  -4.4783279344057858     
  0.40862054186575220        7.9419764356884314E-015  -4.4783279344057858     
  0.41899365373075881        7.8942662462999318E-015  -4.4783279344057858     
  0.42949661993298649        7.8224026103627780E-015  -4.4783279344057858     
  0.44012943233866131        7.7975653116937241E-015  -4.4783279344057858     
  0.45089208270970282        7.7752818025742378E-015  -4.4783279344057858     
  0.46178456270358803        7.6847405716986781E-015  -4.4783279344057858     
  0.47280686387321380        7.6531882464459524E-015  -4.4783279344057858     
  0.48395897766677459        7.6056238903019073E-015  -4.4783279344057858     
  0.49524089542760014        7.5108336998433819E-015  -4.4783279344057858     
  0.50665260839405601        7.3639525096177634E-015  -4.4783279344057858     
  0.51819410769936181        7.2127656111306292E-015  -4.4783279344057858     
  0.52986538437147557        7.1543733638941122E-015  -4.4783279344057858     
  0.54166642933294062        6.9426105598394369E-015  -4.4783279344057858     
  0.55359723340075029        6.7454397105339305E-015  -4.4783279344057858     
  0.56565778728617333        6.5781934565906448E-015  -4.4783279344057858     
  0.57784808159464829        6.4448857266103985E-015  -4.4783279344057858     
  0.59016810682559262        6.2212635124695581E-015  -4.4783279344057858     
  0.60261785337227736        6.0090543600859702E-015  -4.4783279344057858     
  0.61519731152166868        5.8819287340149959E-015  -4.4783279344057858     
  0.62790647145426337        5.7202474718010336E-015  -4.4783279344057858     
  0.64074532324393574        5.5615434147314838E-015  -4.4783279344057858     
  0.65371385685778938        5.4137577448833687E-015  -4.4783279344057858     
  0.66681206215598965        5.3600139717527560E-015  -4.4783279344057858     
  0.68003992889159592        5.1638802744714417E-015  -4.4783279344057858     
  0.69339744671041670        4.9283487340127334E-015  -4.4783279344057858     
  0.70688460515082230        4.7113759658066138E-015  -4.4783279344057858     
  0.72050139364360299        4.4524547656504331E-015  -4.4783279344057858     
  0.73424780151177693        4.0887862683916521E-015  -4.4783279344057858     
  0.74812381797043803        3.6690472711687144E-015  -4.4783279344057858     
  0.76212943212657669        3.3471022041325140E-015  -4.4783279344057858     
  0.77626463297891268        3.0072107574607968E-015  -4.4783279344057858     
  0.79052940941772032        2.6581404031917641E-015  -4.4783279344057858     
  0.80492375022464069        2.3304248225780243E-015  -4.4783279344057858     
  0.81944764407252568        1.9578877142116435E-015  -4.4783279344057858     
  0.83410107952523505        1.6294737564685976E-015  -4.4783279344057858     
  0.84888404503746917        1.2981288063654250E-015  -4.4783279344057858     
  0.86379652895459524        9.2745284130294084E-016  -4.4783279344057858     
  0.87883851951244485        7.5557254429140451E-016  -4.4783279344057858     
  0.89401000483713011        5.1384405187832805E-016  -4.4783279344057858     
  0.90931097294487861        4.7545754904241741E-016  -4.4783279344057858     
  0.92474141174181068        2.3851194239860081E-016  -4.4783279344057858     
  0.94030130902377740        1.6286060602529025E-016  -4.4783279344057858     
  0.95599065247616211       -5.6169238991302565E-017  -4.4783279344057858     
  0.97180942967367479       -2.1641372875193268E-016  -4.4783279344057858     
  0.98775762808016510       -4.0738071120909115E-016  -4.4783279344057858     
   1.0038352350484225       -3.1948705974486476E-016  -4.4783279344057858     
   1.0200422378199885       -2.5287835966507380E-016  -4.4783279344057858     
   1.0363786235249455       -1.1858679662940308E-016  -4.4783279344057858     
   1.0528443791817137       -1.5459240413158900E-016  -4.4783279344057858     
   1.0694394916968550       -1.0413374492368083E-016  -4.4783279344057858     
   1.0861639478648630       -3.9206948623143199E-017  -4.4783279344057858     
   1.1030177343679570        9.0587644322142635E-017  -4.4783279344057858     
   1.1200008377758754        7.2953066389627848E-017  -4.4783279344057858     
   1.1371132445456744        9.5425798107343194E-017  -4.4783279344057858     
   1.1543549410214962        1.2153554721653608E-016  -4.4783279344057858     
   1.1717259134343676        2.8921452426815643E-016  -4.4783279344057858     
   1.1892261479019861        2.7422427966927787E-016  -4.4783279344057858     
   1.2068556304285114        1.3841454903711363E-016  -4.4783279344057858     
   1.2246143469043300        5.7075036582295899E-017  -4.4783279344057858     
   1.2425022831058432       -1.1919672951203524E-016  -4.4783279344057858     
   1.2605194246952509       -1.9391422691169064E-016  -4.4783279344057858     
   1.2786657572203253       -2.0457220216753803E-016  -4.4783279344057858     
   1.2969412661141775       -2.8891847169612012E-016  -4.4783279344057858     
   1.3153459366950513       -2.8418444807068170E-016  -4.4783279344057858     
   1.3338797541660843       -3.1977815498108842E-016  -4.4783279344057858     
   1.3525427036150657       -2.7812787949863514E-016  -4.4783279344057858     
   1.3713347700142320       -2.5272998313715158E-016  -4.4783279344057858     
   1.3902559382200139       -1.3451942472184374E-016  -4.4783279344057858     
   1.4093061929728208       -1.1580770966768667E-016  -4.4783279344057858     
   1.4284855188967729       -2.1143450023159896E-016  -4.4783279344057858     
   1.4477939004995042       -2.2901207844361098E-016  -4.4783279344057858     
   1.4672313221718907       -1.0904823688035022E-016  -4.4783279344057858     
   1.4867977681878404       -4.2540425754282014E-017  -4.4783279344057858     
   1.5064932227040111       -4.0605924269436633E-017  -4.4783279344057858     
   1.5263176697596117       -8.6923443621150503E-017  -4.4783279344057858     
   1.5462710932761179       -2.0089484165080718E-017  -4.4783279344057858     
   1.5663534770570577       -3.4115457383131426E-017  -4.4783279344057858     
   1.5865648047877319        1.7655107440938540E-018  -4.4783279344057858     
   1.6069050600349890       -4.7459820399080147E-017  -4.4783279344057858     
   1.6273742262469639        3.2106715929460563E-017  -4.4783279344057858     
   1.6479722867528188        7.9401452622771954E-017  -4.4783279344057858     
   1.6686992247625005        1.0437910845055532E-016  -4.4783279344057858     
   1.6895550233664713        6.3137747249469868E-017  -4.4783279344057858     
   1.7105396655354588        2.3698806911728849E-016  -4.4783279344057858     
   1.7316531341201957        2.2098967911090983E-016  -4.4783279344057858     
   1.7528954118511506        3.1349223525185532E-016  -4.4783279344057858     
   1.7742664813382787        2.6787704504161815E-016  -4.4783279344057858     
   1.7957663250707432        3.6274147008859843E-016  -4.4783279344057858     
   1.8173949254166570        3.3571787515258261E-016  -4.4783279344057858     
   1.8391522646228164        3.0764131061088690E-016  -4.4783279344057858     
   1.8610383248144164        1.8219438967709971E-016  -4.4783279344057858     
   1.8830530879947993        2.4672132702141308E-016  -4.4783279344057858     
   1.9051965360451786        7.7039129955432994E-017  -4.4783279344057858     
   1.9274686507243519        1.1789166036056258E-016  -4.4783279344057858     
   1.9498694136684351       -2.6593651428108695E-017  -4.4783279344057858     
   1.9723988063905840       -4.1504089151324443E-017  -4.4783279344057858     
   1.9950568102807116       -2.6596617714217492E-016  -4.4783279344057858     
   2.0178434066052073       -3.5903327336411300E-016  -4.4783279344057858     
   2.0407585765066645       -4.6126544607356212E-016  -4.4783279344057858     
   2.0638023010035762       -3.4850217699011709E-016  -4.4783279344057858     
   2.0869745609900829       -4.0397439962678885E-016  -4.4783279344057858     
   2.1102753372356382       -2.8772141081211737E-016  -4.4783279344057858     
   2.1337046103847661       -2.6016820307039778E-016  -4.4783279344057858     
   2.1572623609567416       -1.8340634212963725E-016  -4.4783279344057858     
   2.1809485693453112       -6.7712647664132467E-018  -4.4783279344057858     
   2.2047632158183967        2.5560295875887243E-016  -4.4783279344057858     
   2.2287062805177915        1.6714140220917221E-016  -4.4783279344057858     
   2.2527777434588812        2.3585028234269233E-016  -4.4783279344057858     
   2.2769775845303308        1.4593014454617516E-016  -4.4783279344057858     
   2.3013057834937851        1.7292002960034438E-016  -4.4783279344057858     
   2.3257623199835775        8.2070279466737517E-017  -4.4783279344057858     
   2.3503471735064210        8.0154191697068223E-017  -4.4783279344057858     
   2.3750603234410983       -1.4066750369276652E-016  -4.4783279344057858     
   2.3999017490381571        7.4797926503635772E-017  -4.4783279344057858     
   2.4248714294196132        1.7907245231845468E-016  -4.4783279344057858     
   2.4499693435786241        4.2804723310052429E-016  -4.4783279344057858     
   2.4751954703791901        4.8170309138754091E-016  -4.4783279344057858     
   2.5005497885558348        7.4443823698817526E-016  -4.4783279344057858     
   2.5260322767132952        6.6263630729754075E-016  -4.4783279344057858     
   2.5516429133262002        1.0710410262836396E-015  -4.4783279344057858     
   2.5773816767387587        1.0784128175061649E-015  -4.4783279344057858     
   2.6032485451644378        1.1604113591570938E-015  -4.4783279344057858     
   2.6292434966856382        1.1574493191933529E-015  -4.4783279344057858     
   2.6553665092533834        1.3335836629481260E-015  -4.4783279344057858     
   2.6816175606869699        1.3915769160170707E-015  -4.4783279344057858     
   2.7079966286736807        1.4762171343351272E-015  -4.4783279344057858     
   2.7345036907684217        1.3502123561942925E-015  -4.4783279344057858     
   2.7611387243934091        1.3321579571490982E-015  -4.4783279344057858     
   2.7879017068378449        1.3228878045920389E-015  -4.4783279344057858     
   2.8147926152575620        1.2206184413818141E-015  -4.4783279344057858     
   2.8418114266747247        8.2738103483245734E-016  -4.4783279344057858     
   2.8689581179774626        7.2784608121650457E-016  -4.4783279344057858     
   2.8962326659195399        5.9541354407215423E-016  -4.4783279344057858     
   2.9236350471200372        5.8441198658746060E-016  -4.4783279344057858     
   2.9511652380629880        3.8120768154660259E-016  -4.4783279344057858     
   2.9788232150970408        2.7691996171208891E-016  -4.4783279344057858     
   3.0066089544351304        9.7726922117910364E-017  -4.4783279344057858     
   3.0345224321541129        1.0627576159387023E-016  -4.4783279344057858     
   3.0625636241944427        1.3911676794889537E-017  -4.4783279344057858     
   3.0907325063598026        6.4551539365947972E-017  -4.4783279344057858     
   3.1190290543167545       -2.0404640624209595E-016  -4.4783279344057858     
   3.1474532435944158       -4.6104085449661172E-016  -4.4783279344057858     
   3.1760050495840719       -7.7756611465400013E-016  -4.4783279344057858     
   3.2046844475388405       -9.4373238157340696E-016  -4.4783279344057858     
   3.2334914125733136       -9.5422409934306859E-016  -4.4783279344057858     
   3.2624259196631993       -7.9016785040128888E-016  -4.4783279344057858     
   3.2914879436449618       -8.1015525267588857E-016  -4.4783279344057858     
   3.3206774592154553       -9.5559996306353915E-016  -4.4783279344057858     
   3.3499944409315683       -1.1571914019268248E-015  -4.4783279344057858     
   3.3794388632098622       -9.1278118711110735E-016  -4.4783279344057858     
   3.4090107003262000       -7.9651515844570101E-016  -4.4783279344057858     
   3.4387099264153718       -4.9344704041483819E-016  -4.4783279344057858     
   3.4685365154707539       -5.3040214784740715E-016  -4.4783279344057858     
   3.4984904413438920       -1.2440387870301387E-016  -4.4783279344057858     
   3.5285716777441842        7.1920045676083191E-017  -4.4783279344057858     
   3.5587801982384586        5.1035689781780883E-017  -4.4783279344057858     
   3.5891159762506368       -2.6363574422358531E-016  -4.4783279344057858     
   3.6195789850613274       -4.3020195487306100E-016  -4.4783279344057858     
   3.6501691978074624       -4.9012670680058176E-016  -4.4783279344057858     
   3.6808865874819197       -3.4912049710923218E-016  -4.4783279344057858     
   3.7117311269331279       -3.6571029628852035E-016  -4.4783279344057858     
   3.7427027888647069       -2.4166296185987386E-016  -4.4783279344057858     
   3.7738015458350551       -2.8738187042850422E-016  -4.4783279344057858     
   3.8050273702569792       -1.1017948703388295E-016  -4.4783279344057858     
   3.8363802343973150       -2.9146253970427547E-016  -4.4783279344057858     
   3.8678601103765109       -5.1888369675756828E-016  -4.4783279344057858     
   3.8994669701682692       -8.5316090511201083E-016  -4.4783279344057858     
   3.9312007855991213       -8.4862912200822363E-016  -4.4783279344057858     
   3.9630615283480641       -1.1609856020705863E-015  -4.4783279344057858     
   3.9950491699461366       -1.1161717510967981E-015  -4.4783279344057858     
   4.0271636817760497       -1.1422842197313804E-015  -4.4783279344057858     
   4.0594050350717685       -1.2638260048550212E-015  -4.4783279344057858     
   4.0917732009181123       -1.2570030799309281E-015  -4.4783279344057858     
   4.1242681502503578       -1.1771749166928784E-015  -4.4783279344057858     
