 #Wavefunction nu=           2
 # R (nm)   R psi(R)    E(MHz)
   9.6824421025974196E-005   6.5189060977648734E-018  -6.9896165107818060     
   3.2458500270136242E-004   2.1338046628873973E-017  -6.9896165107818060     
   6.8255612481164958E-004   4.3625570360942367E-017  -6.9896165107818060     
   1.1707098398518237E-003   7.7273481414728663E-017  -6.9896165107818060     
   1.7890408912213842E-003   1.2034429253507962E-016  -6.9896165107818060     
   2.5375474161630491E-003   1.7213945909781671E-016  -6.9896165107818060     
   3.4162283292333276E-003   2.4415262784888513E-016  -6.9896165107818060     
   4.4250827356027778E-003   3.2649070066126105E-016  -6.9896165107818060     
   5.5641097560170704E-003   4.1739531896013558E-016  -6.9896165107818060     
   6.8333084637588410E-003   5.0763850781661699E-016  -6.9896165107818060     
   8.2326778585848203E-003   6.0576603631849305E-016  -6.9896165107818060     
   9.7622168548459325E-003   7.1837225318567431E-016  -6.9896165107818060     
   1.1421924275535542E-002   8.4158345458964898E-016  -6.9896165107818060     
   1.3211798849181503E-002   1.0175819765966479E-015  -6.9896165107818060     
   1.5131839208037567E-002   1.1878202280807933E-015  -6.9896165107818060     
   1.7182043887089361E-002   1.3496424215067101E-015  -6.9896165107818060     
   1.9362411323375954E-002   1.5357603957268938E-015  -6.9896165107818060     
   2.1672939855579474E-002   1.7698430563092429E-015  -6.9896165107818060     
   2.4113627723768766E-002   1.9424612158853021E-015  -6.9896165107818060     
   2.6684473069168706E-002   2.1895897516438731E-015  -6.9896165107818060     
   2.9385473934050280E-002   2.3631657410379359E-015  -6.9896165107818060     
   3.2216628261598802E-002   2.6279686864381319E-015  -6.9896165107818060     
   3.5177933895817394E-002   2.8830707525306295E-015  -6.9896165107818060     
   3.8269388581484570E-002   3.0787801943565884E-015  -6.9896165107818060     
   4.1490989964052108E-002   3.3228715285893357E-015  -6.9896165107818060     
   4.4842735589611223E-002   3.6011936103923224E-015  -6.9896165107818060     
   4.8324622904818065E-002   3.8585767670931117E-015  -6.9896165107818060     
   5.1936649256849543E-002   4.1028587680204001E-015  -6.9896165107818060     
   5.5678811893361116E-002   4.3730016902629017E-015  -6.9896165107818060     
   5.9551107962399055E-002   4.6669716353544256E-015  -6.9896165107818060     
   6.3553534512395288E-002   4.8985912960463147E-015  -6.9896165107818060     
   6.7686088492078841E-002   5.1542365791580753E-015  -6.9896165107818060     
   7.1948766750436446E-002   5.3351458203615396E-015  -6.9896165107818060     
   7.6341566036661174E-002   5.6257858460061252E-015  -6.9896165107818060     
   8.0864483000088402E-002   5.8637569442518138E-015  -6.9896165107818060     
   8.5517514190152980E-002   6.0548185371213088E-015  -6.9896165107818060     
   9.0300656056310186E-002   6.3078631641908268E-015  -6.9896165107818060     
   9.5213904947996683E-002   6.5895724694073626E-015  -6.9896165107818060     
  0.10025725711456478        6.7376029287711826E-015  -6.9896165107818060     
  0.10543070870521409        6.8749895053966876E-015  -6.9896165107818060     
  0.11073425576892969        7.0246964839687464E-015  -6.9896165107818060     
  0.11616789425443175        7.1768367682925507E-015  -6.9896165107818060     
  0.12173162001007971        7.2853800310975643E-015  -6.9896165107818060     
  0.12742542878383983        7.4895198083422872E-015  -6.9896165107818060     
  0.13324931622318870        7.6681178031729879E-015  -6.9896165107818060     
  0.13920327787504663        7.7605393672378830E-015  -6.9896165107818060     
  0.14528730918572275        7.8980521925584102E-015  -6.9896165107818060     
  0.15150140550081456        8.0448199877876550E-015  -6.9896165107818060     
  0.15784556206515210        8.0575654331703899E-015  -6.9896165107818060     
  0.16431977402271561        8.2181491337157342E-015  -6.9896165107818060     
  0.17092403641655010        8.2288434011912068E-015  -6.9896165107818060     
  0.17765834418869189        8.3940949858683889E-015  -6.9896165107818060     
  0.18452269218007758        8.5576597843506818E-015  -6.9896165107818060     
  0.19151707513047880        8.7627349449438814E-015  -6.9896165107818060     
  0.19864148767839657        8.8614599638441352E-015  -6.9896165107818060     
  0.20589592436097590        9.0622940534083651E-015  -6.9896165107818060     
  0.21328037961393725        9.1990315957550610E-015  -6.9896165107818060     
  0.22079484777146180        9.3985152627654375E-015  -6.9896165107818060     
  0.22843932306611725        9.5193920976043468E-015  -6.9896165107818060     
  0.23621379962875186        9.6744336497557117E-015  -6.9896165107818060     
  0.24411827148840476        9.7504163108638124E-015  -6.9896165107818060     
  0.25215273257221382        9.8787912431649836E-015  -6.9896165107818060     
  0.26031717670531063        9.9298039265853657E-015  -6.9896165107818060     
  0.26861159761072256        1.0048312800969593E-014  -6.9896165107818060     
  0.27703598890927178        1.0078941112858951E-014  -6.9896165107818060     
  0.28559034411947171        1.0184822472278633E-014  -6.9896165107818060     
  0.29427465665742047        1.0176049614395238E-014  -6.9896165107818060     
  0.30308891983670122        1.0078779200132795E-014  -6.9896165107818060     
  0.31203312686826484        9.9030899192229465E-015  -6.9896165107818060     
  0.32110727086032509        9.6827899100130940E-015  -6.9896165107818060     
  0.33031134481824975        9.4383924431519642E-015  -6.9896165107818060     
  0.33964534164444066        9.3995761705616140E-015  -6.9896165107818060     
  0.34910925413823357        9.2940327481706035E-015  -6.9896165107818060     
  0.35870307499575804        9.3111258970774134E-015  -6.9896165107818060     
  0.36842679680984175        9.1217722891897384E-015  -6.9896165107818060     
  0.37828041206988283        8.9974318830796574E-015  -6.9896165107818060     
  0.38826391316173059        8.7069907088563432E-015  -6.9896165107818060     
  0.39837729236756114        8.5307574090305123E-015  -6.9896165107818060     
  0.40862054186575220        8.3577919305525704E-015  -6.9896165107818060     
  0.41899365373075881        8.1555485874169176E-015  -6.9896165107818060     
  0.42949661993298649        7.8065633411735037E-015  -6.9896165107818060     
  0.44012943233866131        7.5178705349026119E-015  -6.9896165107818060     
  0.45089208270970282        7.1898424595243252E-015  -6.9896165107818060     
  0.46178456270358803        6.8284223022403431E-015  -6.9896165107818060     
  0.47280686387321380        6.5339246950645709E-015  -6.9896165107818060     
  0.48395897766677459        6.4449851820381009E-015  -6.9896165107818060     
  0.49524089542760014        6.0775706182784158E-015  -6.9896165107818060     
  0.50665260839405601        5.7769204718596172E-015  -6.9896165107818060     
  0.51819410769936181        5.4271790361346630E-015  -6.9896165107818060     
  0.52986538437147557        5.2864966814184256E-015  -6.9896165107818060     
  0.54166642933294062        4.9871309080804727E-015  -6.9896165107818060     
  0.55359723340075029        4.8176981260254432E-015  -6.9896165107818060     
  0.56565778728617333        4.6652111321640195E-015  -6.9896165107818060     
  0.57784808159464829        4.5994633715868957E-015  -6.9896165107818060     
  0.59016810682559262        4.4528966073775890E-015  -6.9896165107818060     
  0.60261785337227736        4.3725783453780246E-015  -6.9896165107818060     
  0.61519731152166868        4.2414455203140104E-015  -6.9896165107818060     
  0.62790647145426337        4.1708610329459804E-015  -6.9896165107818060     
  0.64074532324393574        4.0330813360931437E-015  -6.9896165107818060     
  0.65371385685778938        4.0879448060288441E-015  -6.9896165107818060     
  0.66681206215598965        3.8687555412956096E-015  -6.9896165107818060     
  0.68003992889159592        3.7629168667253175E-015  -6.9896165107818060     
  0.69339744671041670        3.4716241961726905E-015  -6.9896165107818060     
  0.70688460515082230        3.3547767547849899E-015  -6.9896165107818060     
  0.72050139364360299        3.2055812200022917E-015  -6.9896165107818060     
  0.73424780151177693        3.0094245890367755E-015  -6.9896165107818060     
  0.74812381797043803        2.5877694582988758E-015  -6.9896165107818060     
  0.76212943212657669        2.3726483354881206E-015  -6.9896165107818060     
  0.77626463297891268        2.0324348630481921E-015  -6.9896165107818060     
  0.79052940941772032        1.7949129898228444E-015  -6.9896165107818060     
  0.80492375022464069        1.4523546443815512E-015  -6.9896165107818060     
  0.81944764407252568        1.2952185358349638E-015  -6.9896165107818060     
  0.83410107952523505        1.0945836991898316E-015  -6.9896165107818060     
  0.84888404503746917        9.2116986357336375E-016  -6.9896165107818060     
  0.86379652895459524        4.4302056729854602E-016  -6.9896165107818060     
  0.87883851951244485        2.1239147697672691E-016  -6.9896165107818060     
  0.89401000483713011       -4.8726210638507810E-017  -6.9896165107818060     
  0.90931097294487861       -2.0768648716860261E-016  -6.9896165107818060     
  0.92474141174181068       -2.2566426844376757E-016  -6.9896165107818060     
  0.94030130902377740       -2.4797786234346468E-016  -6.9896165107818060     
  0.95599065247616211       -2.5091090750671498E-016  -6.9896165107818060     
  0.97180942967367479       -3.9664134277522857E-016  -6.9896165107818060     
  0.98775762808016510       -4.4239333629293096E-016  -6.9896165107818060     
   1.0038352350484225       -2.9554144587418760E-016  -6.9896165107818060     
   1.0200422378199885       -3.0581957321164625E-016  -6.9896165107818060     
   1.0363786235249455       -7.6893168052435039E-017  -6.9896165107818060     
   1.0528443791817137       -1.2679347381585369E-016  -6.9896165107818060     
   1.0694394916968550        4.7677293959625931E-017  -6.9896165107818060     
   1.0861639478648630        1.3079392672368268E-016  -6.9896165107818060     
   1.1030177343679570        3.2164920021712766E-016  -6.9896165107818060     
   1.1200008377758754        1.3057517560697071E-016  -6.9896165107818060     
   1.1371132445456744        8.9064112890987850E-017  -6.9896165107818060     
   1.1543549410214962       -2.3091529569294615E-017  -6.9896165107818060     
   1.1717259134343676        6.9580090089992312E-017  -6.9896165107818060     
   1.1892261479019861       -1.0757453943913233E-016  -6.9896165107818060     
   1.2068556304285114       -3.3201311883832035E-016  -6.9896165107818060     
   1.2246143469043300       -7.2770751693163252E-016  -6.9896165107818060     
   1.2425022831058432       -8.8880368082162397E-016  -6.9896165107818060     
   1.2605194246952509       -1.1518753275444028E-015  -6.9896165107818060     
   1.2786657572203253       -1.2752122677023135E-015  -6.9896165107818060     
   1.2969412661141775       -1.4724756228821039E-015  -6.9896165107818060     
   1.3153459366950513       -1.4054871367822078E-015  -6.9896165107818060     
   1.3338797541660843       -1.5687664309587874E-015  -6.9896165107818060     
   1.3525427036150657       -1.3865832337250656E-015  -6.9896165107818060     
   1.3713347700142320       -1.2445657288274445E-015  -6.9896165107818060     
   1.3902559382200139       -7.0724292093581415E-016  -6.9896165107818060     
   1.4093061929728208       -5.0651323522561533E-016  -6.9896165107818060     
   1.4284855188967729       -3.7960565337763558E-016  -6.9896165107818060     
   1.4477939004995042       -4.1058497226995406E-016  -6.9896165107818060     
   1.4672313221718907       -1.3131477284607783E-016  -6.9896165107818060     
   1.4867977681878404        1.9714524065938820E-017  -6.9896165107818060     
   1.5064932227040111        4.4638114804955624E-017  -6.9896165107818060     
   1.5263176697596117       -4.4662483476849033E-017  -6.9896165107818060     
   1.5462710932761179        1.5601162341970423E-016  -6.9896165107818060     
   1.5663534770570577        8.1698259905813761E-017  -6.9896165107818060     
   1.5865648047877319        1.3239032229848911E-016  -6.9896165107818060     
   1.6069050600349890       -8.9447514680014211E-017  -6.9896165107818060     
   1.6273742262469639       -1.0096457080428102E-016  -6.9896165107818060     
   1.6479722867528188       -2.3201370614271277E-016  -6.9896165107818060     
   1.6686992247625005       -2.6411345529636586E-016  -6.9896165107818060     
   1.6895550233664713       -5.4614758722307250E-016  -6.9896165107818060     
   1.7105396655354588       -2.8391323075583507E-016  -6.9896165107818060     
   1.7316531341201957       -5.4033471714449045E-016  -6.9896165107818060     
   1.7528954118511506       -6.6010804303947767E-016  -6.9896165107818060     
   1.7742664813382787       -8.5922405164344699E-016  -6.9896165107818060     
   1.7957663250707432       -6.2200702175929113E-016  -6.9896165107818060     
   1.8173949254166570       -6.7422972495436505E-016  -6.9896165107818060     
   1.8391522646228164       -4.8890700846742552E-016  -6.9896165107818060     
   1.8610383248144164       -7.0539149739553888E-016  -6.9896165107818060     
   1.8830530879947993       -6.5932317609884671E-016  -6.9896165107818060     
   1.9051965360451786       -8.9820938293760064E-016  -6.9896165107818060     
   1.9274686507243519       -7.4633891083426539E-016  -6.9896165107818060     
   1.9498694136684351       -8.9652407699602603E-016  -6.9896165107818060     
   1.9723988063905840       -7.0610710890205864E-016  -6.9896165107818060     
   1.9950568102807116       -8.1848873034445655E-016  -6.9896165107818060     
   2.0178434066052073       -7.1766382510768416E-016  -6.9896165107818060     
   2.0407585765066645       -5.9977792834456083E-016  -6.9896165107818060     
   2.0638023010035762       -3.6017461074183681E-016  -6.9896165107818060     
   2.0869745609900829       -5.7135494710428676E-016  -6.9896165107818060     
   2.1102753372356382       -2.9297367521045338E-016  -6.9896165107818060     
   2.1337046103847661       -2.7638711775022083E-016  -6.9896165107818060     
   2.1572623609567416       -8.0325766875387960E-017  -6.9896165107818060     
   2.1809485693453112       -1.1354243607982924E-016  -6.9896165107818060     
   2.2047632158183967        1.7003094193270370E-016  -6.9896165107818060     
   2.2287062805177915       -2.4499950338803957E-017  -6.9896165107818060     
   2.2527777434588812        1.1306761590420861E-016  -6.9896165107818060     
   2.2769775845303308       -1.2244918286905289E-016  -6.9896165107818060     
   2.3013057834937851       -2.0587774877482522E-016  -6.9896165107818060     
   2.3257623199835775       -3.8632297664332939E-016  -6.9896165107818060     
   2.3503471735064210       -2.6771192945076966E-016  -6.9896165107818060     
   2.3750603234410983       -5.4799060314523157E-016  -6.9896165107818060     
   2.3999017490381571       -2.9108089718207222E-016  -6.9896165107818060     
   2.4248714294196132       -2.5063836749536299E-016  -6.9896165107818060     
   2.4499693435786241       -6.8323947941799206E-017  -6.9896165107818060     
   2.4751954703791901       -2.8732931993888246E-016  -6.9896165107818060     
   2.5005497885558348       -2.7238801465025669E-017  -6.9896165107818060     
   2.5260322767132952       -2.8904455704893538E-016  -6.9896165107818060     
   2.5516429133262002        1.1635383875749394E-016  -6.9896165107818060     
   2.5773816767387587        2.2897992675304885E-016  -6.9896165107818060     
   2.6032485451644378        5.0065590704389875E-016  -6.9896165107818060     
   2.6292434966856382        6.5463249391899451E-016  -6.9896165107818060     
   2.6553665092533834        1.1533436682640396E-015  -6.9896165107818060     
   2.6816175606869699        1.2064281232444756E-015  -6.9896165107818060     
   2.7079966286736807        1.4698546615178354E-015  -6.9896165107818060     
   2.7345036907684217        1.3412655842797534E-015  -6.9896165107818060     
   2.7611387243934091        1.4185645976657301E-015  -6.9896165107818060     
   2.7879017068378449        1.1281460685037765E-015  -6.9896165107818060     
   2.8147926152575620        9.1466044149402039E-016  -6.9896165107818060     
   2.8418114266747247        2.2690011499528979E-016  -6.9896165107818060     
   2.8689581179774626        2.2674423983964271E-016  -6.9896165107818060     
   2.8962326659195399       -1.8746191382767804E-016  -6.9896165107818060     
   2.9236350471200372       -3.8627424479263764E-016  -6.9896165107818060     
   2.9511652380629880       -7.7155993636040973E-016  -6.9896165107818060     
   2.9788232150970408       -6.9101054958261040E-016  -6.9896165107818060     
   3.0066089544351304       -8.8582503730187132E-016  -6.9896165107818060     
   3.0345224321541129       -7.7068842042653965E-016  -6.9896165107818060     
   3.0625636241944427       -7.8382180238475744E-016  -6.9896165107818060     
   3.0907325063598026       -4.5494739259984662E-016  -6.9896165107818060     
   3.1190290543167545       -6.3870483310418997E-016  -6.9896165107818060     
   3.1474532435944158       -5.5048769332756885E-016  -6.9896165107818060     
   3.1760050495840719       -7.2597601088094044E-016  -6.9896165107818060     
   3.2046844475388405       -7.4293667196134547E-016  -6.9896165107818060     
   3.2334914125733136       -9.9858975686955357E-016  -6.9896165107818060     
   3.2624259196631993       -7.6985608666507747E-016  -6.9896165107818060     
   3.2914879436449618       -8.9333918961356207E-016  -6.9896165107818060     
   3.3206774592154553       -1.0898592475993455E-015  -6.9896165107818060     
   3.3499944409315683       -1.5813370106989469E-015  -6.9896165107818060     
   3.3794388632098622       -1.2728338859066780E-015  -6.9896165107818060     
   3.4090107003262000       -1.1384062737079194E-015  -6.9896165107818060     
   3.4387099264153718       -3.5266422808358083E-016  -6.9896165107818060     
   3.4685365154707539       -3.8750741863851234E-016  -6.9896165107818060     
   3.4984904413438920        2.1460852153047552E-016  -6.9896165107818060     
   3.5285716777441842        3.4881359608389068E-016  -6.9896165107818060     
   3.5587801982384586        4.6916110348292386E-016  -6.9896165107818060     
   3.5891159762506368        1.3395212904237914E-016  -6.9896165107818060     
   3.6195789850613274        1.6216863624691987E-018  -6.9896165107818060     
   3.6501691978074624       -3.9851091867182588E-016  -6.9896165107818060     
   3.6808865874819197       -2.5607088281987464E-016  -6.9896165107818060     
   3.7117311269331279       -2.5468827969154239E-016  -6.9896165107818060     
   3.7427027888647069        4.5069818859331481E-016  -6.9896165107818060     
   3.7738015458350551        4.2018385564841788E-016  -6.9896165107818060     
   3.8050273702569792        9.0678361607390776E-016  -6.9896165107818060     
   3.8363802343973150        9.4321944996630900E-016  -6.9896165107818060     
   3.8678601103765109        1.0043854010258700E-015  -6.9896165107818060     
   3.8994669701682692        5.2895098883848363E-016  -6.9896165107818060     
   3.9312007855991213        6.8575996540490971E-016  -6.9896165107818060     
   3.9630615283480641       -2.0807933478021304E-016  -6.9896165107818060     
   3.9950491699461366        1.0950379138386532E-016  -6.9896165107818060     
   4.0271636817760497        3.1761719679976351E-016  -6.9896165107818060     
   4.0594050350717685        9.0310342253550840E-016  -6.9896165107818060     
   4.0917732009181123        1.3326726500715587E-015  -6.9896165107818060     
   4.1242681502503578        1.9073504151981477E-015  -6.9896165107818060     
